# Example solar-relative asteroid/comet positions
# Format: MJD RA(deg) Dec(deg)
# This shows a hypothetical object moving across the sky
# MJD ~60000 is around 2023
60000.0  180.0  10.0
60010.0  185.5  12.3
60020.0  191.2  14.8
60030.0  197.1  17.5
60040.0  203.3  20.3
60050.0  209.8  23.1
60060.0  216.6  25.8
60070.0  223.7  28.3
60080.0  231.0  30.5
60090.0  238.5  32.3
60100.0  246.2  33.7
60110.0  254.0  34.6
60120.0  261.9  35.0
60130.0  269.8  34.9
60140.0  277.7  34.2
60150.0  285.5  33.0
